#K-Path(1/A) Energy-Level(eV)
# NKPTS & NBANDS: 150  80
# Band-Index    1
   0.00000    -12.899518
   0.01031    -12.899349
   0.02062    -12.898843
   0.03093    -12.897999
   0.04125    -12.896819
   0.05156    -12.895303
   0.06187    -12.893454
   0.07218    -12.891272
   0.08249    -12.888761
   0.09280    -12.885922
   0.10311    -12.882759
   0.11343    -12.879275
   0.12374    -12.875472
   0.13405    -12.871357
   0.14436    -12.866932
   0.15467    -12.862203
   0.16498    -12.857175
   0.17529    -12.851854
   0.18561    -12.846245
   0.19592    -12.840356
   0.20623    -12.834194
   0.21654    -12.827768
   0.22685    -12.821085
   0.23716    -12.814156
   0.24747    -12.806989
   0.25779    -12.799597
   0.26810    -12.791992
   0.27841    -12.784187
   0.28872    -12.776196
   0.29903    -12.768036
   0.30934    -12.759725
   0.31965    -12.751283
   0.32997    -12.742733
   0.34028    -12.734100
   0.35059    -12.725414
   0.36090    -12.716708
   0.37121    -12.708020
   0.38152    -12.699397
   0.39183    -12.690890
   0.40215    -12.682561
   0.41246    -12.674483
   0.42277    -12.666741
   0.43308    -12.659434
   0.44339    -12.652677
   0.45370    -12.646600
   0.46401    -12.641343
   0.47432    -12.637052
   0.48464    -12.633866
   0.49495    -12.631900
   0.50526    -12.631236
   0.50526    -12.631236
   0.51121    -12.631183
   0.51717    -12.631024
   0.52312    -12.630760
   0.52907    -12.630390
   0.53503    -12.629915
   0.54098    -12.629335
   0.54693    -12.628649
   0.55289    -12.627859
   0.55884    -12.626964
   0.56479    -12.625965
   0.57075    -12.624861
   0.57670    -12.623654
   0.58265    -12.622344
   0.58861    -12.620931
   0.59456    -12.619415
   0.60051    -12.617798
   0.60647    -12.616079
   0.61242    -12.614260
   0.61837    -12.612340
   0.62433    -12.610320
   0.63028    -12.608202
   0.63623    -12.605985
   0.64218    -12.603671
   0.64814    -12.601260
   0.65409    -12.598752
   0.66004    -12.596150
   0.66600    -12.593453
   0.67195    -12.590663
   0.67790    -12.587781
   0.68386    -12.584807
   0.68981    -12.581742
   0.69576    -12.578589
   0.70172    -12.575346
   0.70767    -12.572017
   0.71362    -12.568602
   0.71958    -12.565102
   0.72553    -12.561518
   0.73148    -12.557853
   0.73744    -12.554106
   0.74339    -12.550281
   0.74934    -12.546380
   0.75530    -12.542403
   0.76125    -12.538353
   0.76720    -12.534236
   0.77316    -12.530055
   0.77911    -12.525823
   0.78506    -12.521568
   0.79102    -12.517409
   0.79697    -12.514428
   0.79697    -12.514428
   0.80888    -12.523386
   0.82078    -12.532818
   0.83269    -12.542584
   0.84460    -12.552646
   0.85650    -12.562971
   0.86841    -12.573526
   0.88032    -12.584276
   0.89222    -12.595191
   0.90413    -12.606237
   0.91604    -12.617385
   0.92794    -12.628602
   0.93985    -12.639860
   0.95176    -12.651130
   0.96366    -12.662384
   0.97557    -12.673595
   0.98748    -12.684738
   0.99938    -12.695788
   1.01129    -12.706722
   1.02320    -12.717516
   1.03510    -12.728149
   1.04701    -12.738601
   1.05892    -12.748851
   1.07082    -12.758882
   1.08273    -12.768674
   1.09464    -12.778212
   1.10654    -12.787477
   1.11845    -12.796457
   1.13036    -12.805135
   1.14226    -12.813497
   1.15417    -12.821531
   1.16607    -12.829225
   1.17798    -12.836567
   1.18989    -12.843546
   1.20179    -12.850151
   1.21370    -12.856374
   1.22561    -12.862205
   1.23751    -12.867636
   1.24942    -12.872661
   1.26133    -12.877271
   1.27323    -12.881460
   1.28514    -12.885224
   1.29705    -12.888556
   1.30895    -12.891453
   1.32086    -12.893911
   1.33277    -12.895926
   1.34467    -12.897497
   1.35658    -12.898619
   1.36849    -12.899294
   1.38039    -12.899518
 
# Band-Index    2
   1.38039    -12.666455
   1.36849    -12.666231
   1.35658    -12.665555
   1.34467    -12.664431
   1.33277    -12.662859
   1.32086    -12.660840
   1.30895    -12.658378
   1.29705    -12.655476
   1.28514    -12.652138
   1.27323    -12.648367
   1.26133    -12.644168
   1.24942    -12.639548
   1.23751    -12.634512
   1.22561    -12.629067
   1.21370    -12.623219
   1.20179    -12.616978
   1.18989    -12.610352
   1.17798    -12.603349
   1.16607    -12.595980
   1.15417    -12.588256
   1.14226    -12.580187
   1.13036    -12.571787
   1.11845    -12.563067
   1.10654    -12.554041
   1.09464    -12.544724
   1.08273    -12.535130
   1.07082    -12.525277
   1.05892    -12.515180
   1.04701    -12.504858
   1.03510    -12.494330
   1.02320    -12.483614
   1.01129    -12.472733
   0.99938    -12.461707
   0.98748    -12.450559
   0.97557    -12.439316
   0.96366    -12.428000
   0.95176    -12.416639
   0.93985    -12.405261
   0.92794    -12.397759
   0.91604    -12.408679
   0.90413    -12.419512
   0.89222    -12.430227
   0.88032    -12.440804
   0.86841    -12.451226
   0.85650    -12.461477
   0.84460    -12.471540
   0.83269    -12.481399
   0.82078    -12.491036
   0.80888    -12.500430
   0.79697    -12.509458
   0.79697    -12.509458
   0.79102    -12.506489
   0.78506    -12.502373
   0.77911    -12.498194
   0.77316    -12.494072
   0.76720    -12.490037
   0.76125    -12.486102
   0.75530    -12.482272
   0.74934    -12.478553
   0.74339    -12.474947
   0.73744    -12.471457
   0.73148    -12.468083
   0.72553    -12.464828
   0.71958    -12.461692
   0.71362    -12.458675
   0.70767    -12.455777
   0.70172    -12.452999
   0.69576    -12.450338
   0.68981    -12.447795
   0.68386    -12.445367
   0.67790    -12.443054
   0.67195    -12.440854
   0.66600    -12.438764
   0.66004    -12.436782
   0.65409    -12.434906
   0.64814    -12.433133
   0.64218    -12.431462
   0.63623    -12.429888
   0.63028    -12.428409
   0.62433    -12.427022
   0.61837    -12.425725
   0.61242    -12.424515
   0.60647    -12.423388
   0.60051    -12.422341
   0.59456    -12.421374
   0.58861    -12.420481
   0.58265    -12.419662
   0.57670    -12.418914
   0.57075    -12.418234
   0.56479    -12.417621
   0.55884    -12.417072
   0.55289    -12.416586
   0.54693    -12.416161
   0.54098    -12.415795
   0.53503    -12.415488
   0.52907    -12.415238
   0.52312    -12.415045
   0.51717    -12.414908
   0.51121    -12.414825
   0.50526    -12.414798
   0.50526    -12.414798
   0.49495    -12.414092
   0.48464    -12.412005
   0.47432    -12.408616
   0.46401    -12.406424
   0.45370    -12.411797
   0.44339    -12.417998
   0.43308    -12.424881
   0.42277    -12.432312
   0.41246    -12.440174
   0.40215    -12.448366
   0.39183    -12.456802
   0.38152    -12.465408
   0.37121    -12.474124
   0.36090    -12.482895
   0.35059    -12.491680
   0.34028    -12.500437
   0.32997    -12.509134
   0.31965    -12.517744
   0.30934    -12.526239
   0.29903    -12.534598
   0.28872    -12.542802
   0.27841    -12.550832
   0.26810    -12.558673
   0.25779    -12.566310
   0.24747    -12.573731
   0.23716    -12.580923
   0.22685    -12.587876
   0.21654    -12.594578
   0.20623    -12.601023
   0.19592    -12.607201
   0.18561    -12.613104
   0.17529    -12.618725
   0.16498    -12.624057
   0.15467    -12.629094
   0.14436    -12.633831
   0.13405    -12.638263
   0.12374    -12.642384
   0.11343    -12.646192
   0.10311    -12.649680
   0.09280    -12.652847
   0.08249    -12.655688
   0.07218    -12.658202
   0.06187    -12.660386
   0.05156    -12.662237
   0.04125    -12.663754
   0.03093    -12.664935
   0.02062    -12.665780
   0.01031    -12.666287
   0.00000    -12.666455
 
# Band-Index    3
   0.00000    -12.264062
   0.01031    -12.263979
   0.02062    -12.263731
   0.03093    -12.263316
   0.04125    -12.262737
   0.05156    -12.261993
   0.06187    -12.261086
   0.07218    -12.260018
   0.08249    -12.258789
   0.09280    -12.257403
   0.10311    -12.255861
   0.11343    -12.254167
   0.12374    -12.252322
   0.13405    -12.250331
   0.14436    -12.248198
   0.15467    -12.245927
   0.16498    -12.243525
   0.17529    -12.240999
   0.18561    -12.238360
   0.19592    -12.235622
   0.20623    -12.232814
   0.21654    -12.229989
   0.22685    -12.227278
   0.23716    -12.225113
   0.24747    -12.225167
   0.25779    -12.229931
   0.26810    -12.237516
   0.27841    -12.246045
   0.28872    -12.255004
   0.29903    -12.264225
   0.30934    -12.273632
   0.31965    -12.283175
   0.32997    -12.292815
   0.34028    -12.302515
   0.35059    -12.312235
   0.36090    -12.321936
   0.37121    -12.331573
   0.38152    -12.341095
   0.39183    -12.350446
   0.40215    -12.359558
   0.41246    -12.368357
   0.42277    -12.376753
   0.43308    -12.384643
   0.44339    -12.391911
   0.45370    -12.398425
   0.46401    -12.404041
   0.47432    -12.402028
   0.48464    -12.398761
   0.49495    -12.396744
   0.50526    -12.396060
   0.50526    -12.396060
   0.51121    -12.396008
   0.51717    -12.395850
   0.52312    -12.395587
   0.52907    -12.395219
   0.53503    -12.394747
   0.54098    -12.394170
   0.54693    -12.393490
   0.55289    -12.392704
   0.55884    -12.391815
   0.56479    -12.390823
   0.57075    -12.389727
   0.57670    -12.388528
   0.58265    -12.387226
   0.58861    -12.385822
   0.59456    -12.384317
   0.60051    -12.382710
   0.60647    -12.381003
   0.61242    -12.379195
   0.61837    -12.377287
   0.62433    -12.375281
   0.63028    -12.373175
   0.63623    -12.370973
   0.64218    -12.368672
   0.64814    -12.366276
   0.65409    -12.363784
   0.66004    -12.361197
   0.66600    -12.358516
   0.67195    -12.355742
   0.67790    -12.352876
   0.68386    -12.349918
   0.68981    -12.346871
   0.69576    -12.343734
   0.70172    -12.340508
   0.70767    -12.337196
   0.71362    -12.333797
   0.71958    -12.330314
   0.72553    -12.326747
   0.73148    -12.323097
   0.73744    -12.319367
   0.74339    -12.315557
   0.74934    -12.311670
   0.75530    -12.307706
   0.76125    -12.303668
   0.76720    -12.299559
   0.77316    -12.295383
   0.77911    -12.291148
   0.78506    -12.286869
   0.79102    -12.282611
   0.79697    -12.278904
   0.79697    -12.278904
   0.80888    -12.287952
   0.82078    -12.297392
   0.83269    -12.307183
   0.84460    -12.317290
   0.85650    -12.327676
   0.86841    -12.338306
   0.88032    -12.349144
   0.89222    -12.360155
   0.90413    -12.371305
   0.91604    -12.382559
   0.92794    -12.393870
   0.93985    -12.386718
   0.95176    -12.375638
   0.96366    -12.364513
   0.97557    -12.353364
   0.98748    -12.342212
   0.99938    -12.331079
   1.01129    -12.319986
   1.02320    -12.308956
   1.03510    -12.298013
   1.04701    -12.287182
   1.05892    -12.276495
   1.07082    -12.265985
   1.08273    -12.255702
   1.09464    -12.245731
   1.10654    -12.236278
   1.11845    -12.228056
   1.13036    -12.223706
   1.14226    -12.224645
   1.15417    -12.227478
   1.16607    -12.230710
   1.17798    -12.233984
   1.18989    -12.237187
   1.20179    -12.240270
   1.21370    -12.243206
   1.22561    -12.245980
   1.23751    -12.248580
   1.24942    -12.250996
   1.26133    -12.253222
   1.27323    -12.255252
   1.28514    -12.257080
   1.29705    -12.258702
   1.30895    -12.260115
   1.32086    -12.261316
   1.33277    -12.262303
   1.34467    -12.263072
   1.35658    -12.263622
   1.36849    -12.263952
   1.38039    -12.264062
 
# Band-Index    4
   1.38039    -12.108655
   1.36849    -12.108701
   1.35658    -12.108898
   1.34467    -12.109273
   1.33277    -12.109936
   1.32086    -12.111372
   1.30895    -12.114010
   1.29705    -12.117445
   1.28514    -12.121467
   1.27323    -12.126017
   1.26133    -12.131064
   1.24942    -12.136589
   1.23751    -12.142570
   1.22561    -12.148987
   1.21370    -12.155819
   1.20179    -12.163040
   1.18989    -12.170623
   1.17798    -12.178528
   1.16607    -12.186693
   1.15417    -12.194992
   1.14226    -12.203056
   1.13036    -12.209378
   1.11845    -12.210552
   1.10654    -12.207983
   1.09464    -12.204301
   1.08273    -12.200212
   1.07082    -12.195912
   1.05892    -12.191483
   1.04701    -12.186975
   1.03510    -12.182437
   1.02320    -12.177938
   1.01129    -12.173619
   0.99938    -12.169852
   0.98748    -12.167604
   0.97557    -12.167639
   0.96366    -12.169007
   0.95176    -12.170824
   0.93985    -12.172768
   0.92794    -12.174722
   0.91604    -12.176694
   0.90413    -12.184064
   0.89222    -12.194737
   0.88032    -12.205303
   0.86841    -12.215713
   0.85650    -12.225949
   0.84460    -12.235993
   0.83269    -12.245829
   0.82078    -12.255443
   0.80888    -12.264819
   0.79697    -12.273934
   0.79697    -12.273934
   0.79102    -12.270208
   0.78506    -12.265969
   0.77911    -12.261750
   0.77316    -12.257615
   0.76720    -12.253583
   0.76125    -12.249663
   0.75530    -12.245859
   0.74934    -12.242175
   0.74339    -12.238615
   0.73744    -12.235179
   0.73148    -12.231869
   0.72553    -12.228686
   0.71958    -12.225631
   0.71362    -12.222703
   0.70767    -12.219902
   0.70172    -12.217227
   0.69576    -12.214676
   0.68981    -12.212249
   0.68386    -12.209943
   0.67790    -12.207756
   0.67195    -12.205685
   0.66600    -12.203727
   0.66004    -12.201880
   0.65409    -12.200141
   0.64814    -12.198506
   0.64218    -12.196971
   0.63623    -12.195534
   0.63028    -12.194191
   0.62433    -12.192938
   0.61837    -12.191771
   0.61242    -12.190688
   0.60647    -12.189684
   0.60051    -12.188757
   0.59456    -12.187903
   0.58861    -12.187119
   0.58265    -12.186403
   0.57670    -12.185751
   0.57075    -12.185162
   0.56479    -12.184631
   0.55884    -12.184159
   0.55289    -12.183741
   0.54693    -12.183377
   0.54098    -12.183065
   0.53503    -12.182803
   0.52907    -12.182591
   0.52312    -12.182427
   0.51717    -12.182310
   0.51121    -12.182241
   0.50526    -12.182218
   0.50526    -12.182218
   0.49495    -12.181488
   0.48464    -12.179330
   0.47432    -12.175827
   0.46401    -12.171106
   0.45370    -12.165314
   0.44339    -12.158608
   0.43308    -12.151211
   0.42277    -12.153281
   0.41246    -12.156535
   0.40215    -12.160144
   0.39183    -12.163955
   0.38152    -12.167885
   0.37121    -12.171883
   0.36090    -12.175917
   0.35059    -12.179960
   0.34028    -12.183991
   0.32997    -12.187993
   0.31965    -12.191949
   0.30934    -12.195839
   0.29903    -12.199641
   0.28872    -12.203322
   0.27841    -12.206819
   0.26810    -12.209980
   0.25779    -12.212303
   0.24747    -12.211921
   0.23716    -12.206960
   0.22685    -12.199919
   0.21654    -12.192480
   0.20623    -12.185086
   0.19592    -12.177878
   0.18561    -12.170918
   0.17529    -12.164239
   0.16498    -12.157867
   0.15467    -12.151820
   0.14436    -12.146112
   0.13405    -12.140757
   0.12374    -12.135769
   0.11343    -12.131159
   0.10311    -12.126941
   0.09280    -12.123130
   0.08249    -12.119742
   0.07218    -12.116797
   0.06187    -12.114320
   0.05156    -12.112331
   0.04125    -12.110831
   0.03093    -12.109782
   0.02062    -12.109114
   0.01031    -12.108754
   0.00000    -12.108655
 
# Band-Index    5
   0.00000    -12.103391
   0.01031    -12.103552
   0.02062    -12.103962
   0.03093    -12.104574
   0.04125    -12.105313
   0.05156    -12.106104
   0.06187    -12.106902
   0.07218    -12.107703
   0.08249    -12.108520
   0.09280    -12.109367
   0.10311    -12.110254
   0.11343    -12.111187
   0.12374    -12.112169
   0.13405    -12.113198
   0.14436    -12.114275
   0.15467    -12.115394
   0.16498    -12.116553
   0.17529    -12.117748
   0.18561    -12.118973
   0.19592    -12.120223
   0.20623    -12.121494
   0.21654    -12.122781
   0.22685    -12.124077
   0.23716    -12.125377
   0.24747    -12.126677
   0.25779    -12.127971
   0.26810    -12.129254
   0.27841    -12.130520
   0.28872    -12.131764
   0.29903    -12.132981
   0.30934    -12.134166
   0.31965    -12.135314
   0.32997    -12.136419
   0.34028    -12.137477
   0.35059    -12.138481
   0.36090    -12.139425
   0.37121    -12.140300
   0.38152    -12.141095
   0.39183    -12.141794
   0.40215    -12.142368
   0.41246    -12.142769
   0.42277    -12.143404
   0.43308    -12.150585
   0.44339    -12.149014
   0.45370    -12.148282
   0.46401    -12.148045
   0.47432    -12.148005
   0.48464    -12.148030
   0.49495    -12.148060
   0.50526    -12.148072
   0.50526    -12.148072
   0.51121    -12.148113
   0.51717    -12.148237
   0.52312    -12.148442
   0.52907    -12.148730
   0.53503    -12.149097
   0.54098    -12.149543
   0.54693    -12.150067
   0.55289    -12.150666
   0.55884    -12.151338
   0.56479    -12.152081
   0.57075    -12.152890
   0.57670    -12.153763
   0.58265    -12.154695
   0.58861    -12.155683
   0.59456    -12.156722
   0.60051    -12.157806
   0.60647    -12.158931
   0.61242    -12.160092
   0.61837    -12.161283
   0.62433    -12.162499
   0.63028    -12.163734
   0.63623    -12.164983
   0.64218    -12.166239
   0.64814    -12.167497
   0.65409    -12.168752
   0.66004    -12.169998
   0.66600    -12.171229
   0.67195    -12.172441
   0.67790    -12.173628
   0.68386    -12.174784
   0.68981    -12.175907
   0.69576    -12.176990
   0.70172    -12.178030
   0.70767    -12.179024
   0.71362    -12.179966
   0.71958    -12.180855
   0.72553    -12.181687
   0.73148    -12.182459
   0.73744    -12.183170
   0.74339    -12.183818
   0.74934    -12.184401
   0.75530    -12.184917
   0.76125    -12.185367
   0.76720    -12.185748
   0.77316    -12.186063
   0.77911    -12.186309
   0.78506    -12.186487
   0.79102    -12.186599
   0.79697    -12.186645
   0.79697    -12.186645
   0.80888    -12.186612
   0.82078    -12.186325
   0.83269    -12.185795
   0.84460    -12.185034
   0.85650    -12.184057
   0.86841    -12.182880
   0.88032    -12.181519
   0.89222    -12.179986
   0.90413    -12.178274
   0.91604    -12.173011
   0.92794    -12.162150
   0.93985    -12.151155
   0.95176    -12.146463
   0.96366    -12.150780
   0.97557    -12.154664
   0.98748    -12.157179
   0.99938    -12.157366
   1.01129    -12.155985
   1.02320    -12.153998
   1.03510    -12.151774
   1.04701    -12.149446
   1.05892    -12.147075
   1.07082    -12.144691
   1.08273    -12.142317
   1.09464    -12.139969
   1.10654    -12.137656
   1.11845    -12.135391
   1.13036    -12.133181
   1.14226    -12.131033
   1.15417    -12.128956
   1.16607    -12.126955
   1.17798    -12.125035
   1.18989    -12.123202
   1.20179    -12.121459
   1.21370    -12.119812
   1.22561    -12.118263
   1.23751    -12.116815
   1.24942    -12.115471
   1.26133    -12.114231
   1.27323    -12.113096
   1.28514    -12.112062
   1.29705    -12.111116
   1.30895    -12.110213
   1.32086    -12.109157
   1.33277    -12.107555
   1.34467    -12.105844
   1.35658    -12.104517
   1.36849    -12.103690
   1.38039    -12.103391
 
# Band-Index    6
   1.38039    -12.042790
   1.36849    -12.042659
   1.35658    -12.042266
   1.34467    -12.041613
   1.33277    -12.040701
   1.32086    -12.039530
   1.30895    -12.038105
   1.29705    -12.036427
   1.28514    -12.034501
   1.27323    -12.032330
   1.26133    -12.029918
   1.24942    -12.027271
   1.23751    -12.024395
   1.22561    -12.021298
   1.21370    -12.017987
   1.20179    -12.014473
   1.18989    -12.010768
   1.17798    -12.006893
   1.16607    -12.002885
   1.15417    -11.999062
   1.14226    -12.000376
   1.13036    -12.002734
   1.11845    -12.005227
   1.10654    -12.007843
   1.09464    -12.010706
   1.08273    -12.018661
   1.07082    -12.029101
   1.05892    -12.039796
   1.04701    -12.050656
   1.03510    -12.061645
   1.02320    -12.072729
   1.01129    -12.083884
   0.99938    -12.095087
   0.98748    -12.106314
   0.97557    -12.117543
   0.96366    -12.128748
   0.95176    -12.139857
   0.93985    -12.141734
   0.92794    -12.137185
   0.91604    -12.132621
   0.90413    -12.128112
   0.89222    -12.123689
   0.88032    -12.119378
